# wavelength[angstrom] transmittance
 9400.4  0.0009
 9404.9  0.0009
 9409.4  0.0009
 9414.0  0.0011
 9418.5  0.0012
 9423.0  0.0012
 9427.5  0.0012
 9432.0  0.0012
 9436.5  0.0014
 9441.1  0.0016
 9445.6  0.0017
 9450.1  0.0017
 9454.6  0.0017
 9459.1  0.0017
 9463.7  0.0018
 9468.2  0.0022
 9472.7  0.0024
 9477.2  0.0023
 9481.7  0.0022
 9486.2  0.0022
 9490.8  0.0023
 9495.3  0.0024
 9499.8  0.0025
 9504.3  0.0028
 9508.9  0.0029
 9513.4  0.0029
 9517.9  0.0030
 9522.4  0.0034
 9526.9  0.0038
 9531.5  0.0041
 9536.0  0.0043
 9540.5  0.0048
 9545.0  0.0055
 9549.5  0.0063
 9554.1  0.0071
 9558.6  0.0079
 9563.1  0.0089
 9567.6  0.0102
 9572.2  0.0117
 9576.7  0.0135
 9581.2  0.0158
 9585.7  0.0186
 9590.3  0.0221
 9594.8  0.0264
 9599.3  0.0319
 9603.8  0.0389
 9608.3  0.0482
 9612.9  0.0604
 9617.4  0.0762
 9621.9  0.0965
 9626.4  0.1218
 9631.0  0.1524
 9635.5  0.1880
 9640.0  0.2280
 9644.6  0.2717
 9649.1  0.3182
 9653.6  0.3666
 9658.1  0.4172
 9662.7  0.4704
 9667.2  0.5263
 9671.7  0.5838
 9676.2  0.6415
 9680.8  0.6974
 9685.3  0.7495
 9689.8  0.7953
 9694.3  0.8322
 9698.9  0.8582
 9703.4  0.8733
 9707.9  0.8783
 9712.5  0.8749
 9717.0  0.8644
 9721.5  0.8478
 9726.0  0.8260
 9730.6  0.8000
 9735.1  0.7702
 9739.6  0.7369
 9744.2  0.7002
 9748.7  0.6599
 9753.2  0.6153
 9757.8  0.5667
 9762.3  0.5143
 9766.8  0.4588
 9771.3  0.4014
 9775.9  0.3437
 9780.4  0.2881
 9784.9  0.2369
 9789.5  0.1918
 9794.0  0.1536
 9798.5  0.1224
 9803.1  0.0977
 9807.6  0.0785
 9812.1  0.0636
 9816.7  0.0521
 9821.2  0.0430
 9825.7  0.0359
 9830.2  0.0302
 9834.8  0.0257
 9839.3  0.0221
 9843.8  0.0192
 9848.4  0.0167
 9852.9  0.0144
 9857.4  0.0124
 9862.0  0.0108
 9866.5  0.0096
 9871.0  0.0085
 9875.6  0.0073
 9880.1  0.0063
 9884.6  0.0055
 9889.2  0.0050
 9893.7  0.0044
 9898.3  0.0037
 9902.8  0.0030
 9907.3  0.0026
 9911.9  0.0024
 9916.4  0.0024
 9920.9  0.0023
 9925.5  0.0022
 9930.0  0.0021
 9934.5  0.0019
 9939.1  0.0017
 9943.6  0.0016
 9948.1  0.0015
 9952.7  0.0016
 9957.2  0.0017
 9961.7  0.0015
 9966.3  0.0010
 9970.8  0.0008
 9975.4  0.0010
 9979.9  0.0015
 9984.4  0.0018
 9989.0  0.0016
 9993.5  0.0011
 9998.0  0.0008
