# wavelength[angstrom] transmittance
 8501.4  0.0010
 8505.9  0.0009
 8510.4  0.0009
 8514.8  0.0010
 8519.3  0.0011
 8523.8  0.0011
 8528.2  0.0010
 8532.7  0.0011
 8537.2  0.0010
 8541.7  0.0009
 8546.1  0.0009
 8550.6  0.0010
 8555.1  0.0011
 8559.6  0.0011
 8564.0  0.0011
 8568.5  0.0010
 8573.0  0.0010
 8577.5  0.0010
 8581.9  0.0010
 8586.4  0.0010
 8590.9  0.0010
 8595.4  0.0010
 8599.8  0.0010
 8604.3  0.0010
 8608.8  0.0010
 8613.3  0.0010
 8617.8  0.0010
 8622.2  0.0011
 8626.7  0.0011
 8631.2  0.0010
 8635.7  0.0009
 8640.1  0.0009
 8644.6  0.0010
 8649.1  0.0011
 8653.6  0.0011
 8658.1  0.0010
 8662.5  0.0010
 8667.0  0.0010
 8671.5  0.0010
 8676.0  0.0009
 8680.5  0.0009
 8684.9  0.0009
 8689.4  0.0009
 8693.9  0.0009
 8698.4  0.0009
 8702.9  0.0009
 8707.4  0.0009
 8711.8  0.0009
 8716.3  0.0009
 8720.8  0.0010
 8725.3  0.0010
 8729.8  0.0010
 8734.3  0.0009
 8738.7  0.0009
 8743.2  0.0008
 8747.7  0.0007
 8752.2  0.0007
 8756.7  0.0007
 8761.2  0.0009
 8765.7  0.0009
 8770.1  0.0008
 8774.6  0.0008
 8779.1  0.0007
 8783.6  0.0008
 8788.1  0.0008
 8792.6  0.0008
 8797.1  0.0009
 8801.6  0.0010
 8806.0  0.0010
 8810.5  0.0010
 8815.0  0.0009
 8819.5  0.0009
 8824.0  0.0009
 8828.5  0.0008
 8833.0  0.0007
 8837.5  0.0008
 8842.0  0.0009
 8846.4  0.0011
 8850.9  0.0011
 8855.4  0.0010
 8859.9  0.0009
 8864.4  0.0008
 8868.9  0.0008
 8873.4  0.0008
 8877.9  0.0009
 8882.4  0.0009
 8886.9  0.0009
 8891.4  0.0008
 8895.8  0.0007
 8900.3  0.0007
 8904.8  0.0007
 8909.3  0.0008
 8913.8  0.0008
 8918.3  0.0009
 8922.8  0.0009
 8927.3  0.0008
 8931.8  0.0007
 8936.3  0.0008
 8940.8  0.0009
 8945.3  0.0009
 8949.8  0.0009
 8954.3  0.0008
 8958.8  0.0007
 8963.3  0.0008
 8967.8  0.0009
 8972.3  0.0009
 8976.8  0.0009
 8981.3  0.0008
 8985.7  0.0008
 8990.2  0.0009
 8994.7  0.0010
 8999.2  0.0010
 9003.7  0.0009
 9008.2  0.0009
 9012.7  0.0009
 9017.2  0.0009
 9021.7  0.0009
 9026.2  0.0008
 9030.7  0.0007
 9035.2  0.0007
 9039.7  0.0009
 9044.2  0.0010
 9048.7  0.0010
 9053.2  0.0008
 9057.7  0.0008
 9062.2  0.0009
 9066.7  0.0010
 9071.2  0.0010
 9075.7  0.0011
 9080.2  0.0012
 9084.7  0.0012
 9089.2  0.0011
 9093.7  0.0011
 9098.3  0.0013
 9102.8  0.0014
 9107.3  0.0015
 9111.8  0.0014
 9116.3  0.0014
 9120.8  0.0015
 9125.3  0.0015
 9129.8  0.0016
 9134.3  0.0017
 9138.8  0.0018
 9143.3  0.0020
 9147.8  0.0023
 9152.3  0.0025
 9156.8  0.0027
 9161.3  0.0029
 9165.8  0.0032
 9170.3  0.0036
 9174.8  0.0041
 9179.3  0.0047
 9183.8  0.0053
 9188.4  0.0059
 9192.9  0.0066
 9197.4  0.0077
 9201.9  0.0091
 9206.4  0.0108
 9210.9  0.0129
 9215.4  0.0151
 9219.9  0.0178
 9224.4  0.0213
 9228.9  0.0259
 9233.4  0.0318
 9237.9  0.0393
 9242.5  0.0487
 9247.0  0.0607
 9251.5  0.0759
 9256.0  0.0950
 9260.5  0.1184
 9265.0  0.1467
 9269.5  0.1801
 9274.0  0.2185
 9278.5  0.2614
 9283.0  0.3086
 9287.6  0.3600
 9292.1  0.4149
 9296.6  0.4727
 9301.1  0.5329
 9305.6  0.5943
 9310.1  0.6545
 9314.6  0.7115
 9319.1  0.7641
 9323.7  0.8106
 9328.2  0.8490
 9332.7  0.8783
 9337.2  0.8995
 9341.7  0.9147
 9346.2  0.9255
 9350.7  0.9320
 9355.3  0.9350
 9359.8  0.9364
 9364.3  0.9375
 9368.8  0.9391
 9373.3  0.9414
 9377.8  0.9438
 9382.3  0.9453
 9386.9  0.9472
 9391.4  0.9507
 9395.9  0.9543
 9400.4  0.9554
 9404.9  0.9548
 9409.4  0.9546
 9414.0  0.9548
 9418.5  0.9545
 9423.0  0.9530
 9427.5  0.9512
 9432.0  0.9499
 9436.5  0.9482
 9441.1  0.9461
 9445.6  0.9448
 9450.1  0.9434
 9454.6  0.9410
 9459.1  0.9391
 9463.7  0.9394
 9468.2  0.9408
 9472.7  0.9410
 9477.2  0.9397
 9481.7  0.9386
 9486.2  0.9384
 9490.8  0.9390
 9495.3  0.9403
 9499.8  0.9417
 9504.3  0.9421
 9508.9  0.9415
 9513.4  0.9412
 9517.9  0.9424
 9522.4  0.9442
 9526.9  0.9452
 9531.5  0.9455
 9536.0  0.9448
 9540.5  0.9425
 9545.0  0.9388
 9549.5  0.9344
 9554.1  0.9290
 9558.6  0.9221
 9563.1  0.9132
 9567.6  0.9016
 9572.2  0.8874
 9576.7  0.8704
 9581.2  0.8500
 9585.7  0.8260
 9590.3  0.7994
 9594.8  0.7697
 9599.3  0.7361
 9603.8  0.6988
 9608.3  0.6587
 9612.9  0.6162
 9617.4  0.5716
 9621.9  0.5254
 9626.4  0.4782
 9631.0  0.4313
 9635.5  0.3852
 9640.0  0.3406
 9644.6  0.2983
 9649.1  0.2594
 9653.6  0.2240
 9658.1  0.1926
 9662.7  0.1649
 9667.2  0.1409
 9671.7  0.1201
 9676.2  0.1024
 9680.8  0.0874
 9685.3  0.0749
 9689.8  0.0644
 9694.3  0.0553
 9698.9  0.0478
 9703.4  0.0417
 9707.9  0.0367
 9712.5  0.0321
 9717.0  0.0279
 9721.5  0.0245
 9726.0  0.0217
 9730.6  0.0194
 9735.1  0.0174
 9739.6  0.0157
 9744.2  0.0141
 9748.7  0.0128
 9753.2  0.0116
 9757.8  0.0105
 9762.3  0.0095
 9766.8  0.0085
 9771.3  0.0077
 9775.9  0.0071
 9780.4  0.0067
 9784.9  0.0063
 9789.5  0.0059
 9794.0  0.0054
 9798.5  0.0050
 9803.1  0.0047
 9807.6  0.0044
 9812.1  0.0042
 9816.7  0.0040
 9821.2  0.0041
 9825.7  0.0042
 9830.2  0.0041
 9834.8  0.0039
 9839.3  0.0036
 9843.8  0.0033
 9848.4  0.0032
 9852.9  0.0030
 9857.4  0.0028
 9862.0  0.0028
 9866.5  0.0030
 9871.0  0.0032
 9875.6  0.0033
 9880.1  0.0031
 9884.6  0.0028
 9889.2  0.0027
 9893.7  0.0027
 9898.3  0.0026
 9902.8  0.0027
 9907.3  0.0029
 9911.9  0.0028
 9916.4  0.0027
 9920.9  0.0026
 9925.5  0.0025
 9930.0  0.0024
 9934.5  0.0024
 9939.1  0.0024
 9943.6  0.0022
 9948.1  0.0022
 9952.7  0.0026
 9957.2  0.0029
 9961.7  0.0028
 9966.3  0.0027
 9970.8  0.0029
 9975.4  0.0029
 9979.9  0.0027
 9984.4  0.0025
 9989.0  0.0024
 9993.5  0.0024
 9998.0  0.0025
10002.6  0.0026
10007.1  0.0027
10011.7  0.0031
10016.2  0.0034
10020.7  0.0035
10025.3  0.0033
10029.8  0.0031
10034.4  0.0030
10038.9  0.0032
10043.4  0.0036
10048.0  0.0040
10052.5  0.0043
10057.0  0.0042
10061.6  0.0039
10066.1  0.0037
10070.7  0.0041
10075.2  0.0047
10079.7  0.0047
10084.3  0.0043
10088.8  0.0041
10093.4  0.0042
10097.9  0.0044
10102.4  0.0047
10107.0  0.0048
10111.5  0.0049
10116.1  0.0051
10120.6  0.0054
10125.1  0.0056
10129.7  0.0056
10134.2  0.0055
10138.8  0.0056
10143.3  0.0059
10147.9  0.0060
10152.4  0.0058
10156.9  0.0059
10161.5  0.0061
10166.0  0.0063
10170.6  0.0065
10175.1  0.0065
10179.6  0.0065
10184.2  0.0068
10188.7  0.0072
10193.3  0.0073
10197.8  0.0072
10202.4  0.0072
10206.9  0.0072
10211.4  0.0073
10216.0  0.0077
10220.5  0.0080
10225.1  0.0082
10229.6  0.0082
10234.2  0.0084
10238.7  0.0087
10243.3  0.0089
10247.8  0.0088
10252.3  0.0087
10256.9  0.0088
10261.4  0.0091
10266.0  0.0096
10270.5  0.0099
10275.1  0.0099
10279.6  0.0097
10284.2  0.0095
10288.7  0.0094
10293.2  0.0092
10297.8  0.0091
10302.3  0.0094
10306.9  0.0102
10311.4  0.0108
10316.0  0.0109
10320.5  0.0108
10325.1  0.0108
10329.6  0.0109
10334.2  0.0110
10338.7  0.0111
10343.2  0.0112
10347.8  0.0109
10352.3  0.0106
10356.9  0.0106
10361.4  0.0106
10366.0  0.0108
10370.5  0.0109
10375.1  0.0109
10379.6  0.0109
10384.2  0.0112
10388.7  0.0117
10393.3  0.0118
10397.8  0.0114
10402.4  0.0114
10406.9  0.0118
10411.5  0.0125
10416.0  0.0130
10420.5  0.0131
10425.1  0.0128
10429.6  0.0123
10434.2  0.0118
10438.7  0.0118
10443.3  0.0121
10447.8  0.0123
10452.4  0.0117
10456.9  0.0108
10461.5  0.0103
10466.0  0.0105
10470.6  0.0110
10475.1  0.0117
10479.7  0.0121
10484.2  0.0119
10488.8  0.0112
10493.3  0.0108
10497.9  0.0116
