# wavelength[angstrom] transmittance
 9004.0  0.0010
 9008.0  0.0010
 9013.0  0.0010
 9017.0  0.0010
 9022.0  0.0010
 9026.0  0.0010
 9031.0  0.0010
 9035.0  0.0010
 9040.0  0.0010
 9044.0  0.0020
 9049.0  0.0020
 9053.0  0.0020
 9058.0  0.0020
 9062.0  0.0020
 9067.0  0.0020
 9071.0  0.0020
 9076.0  0.0020
 9080.0  0.0020
 9085.0  0.0030
 9089.0  0.0030
 9094.0  0.0040
 9098.0  0.0040
 9103.0  0.0050
 9107.0  0.0050
 9112.0  0.0060
 9116.0  0.0070
 9121.0  0.0080
 9125.0  0.0100
 9130.0  0.0120
 9134.0  0.0150
 9139.0  0.0190
 9143.0  0.0260
 9148.0  0.0350
 9152.0  0.0470
 9157.0  0.0640
 9161.0  0.0860
 9166.0  0.1150
 9170.0  0.1490
 9175.0  0.1890
 9179.0  0.2350
 9184.0  0.2880
 9188.0  0.3460
 9193.0  0.4100
 9197.0  0.4790
 9202.0  0.5530
 9206.0  0.6290
 9211.0  0.7030
 9215.0  0.7690
 9220.0  0.8240
 9224.0  0.8640
 9229.0  0.8900
 9233.0  0.9040
 9238.0  0.9120
 9242.0  0.9150
 9247.0  0.9180
 9251.0  0.9210
 9256.0  0.9230
 9260.0  0.9240
 9265.0  0.9230
 9270.0  0.9220
 9274.0  0.9200
 9279.0  0.9170
 9283.0  0.9110
 9288.0  0.9000
 9292.0  0.8840
 9297.0  0.8640
 9301.0  0.8410
 9306.0  0.8120
 9310.0  0.7770
 9315.0  0.7360
 9319.0  0.6890
 9324.0  0.6350
 9328.0  0.5730
 9333.0  0.5050
 9337.0  0.4340
 9342.0  0.3620
 9346.0  0.2920
 9351.0  0.2290
 9355.0  0.1750
 9360.0  0.1320
 9364.0  0.0990
 9369.0  0.0750
 9373.0  0.0580
 9378.0  0.0450
 9382.0  0.0370
 9387.0  0.0300
 9391.0  0.0260
 9396.0  0.0220
 9400.0  0.0190
 9405.0  0.0160
 9409.0  0.0140
 9414.0  0.0130
 9419.0  0.0120
 9423.0  0.0110
 9428.0  0.0100
 9432.0  0.0090
 9436.0  0.0080
 9441.0  0.0070
 9446.0  0.0060
 9450.0  0.0050
 9455.0  0.0060
 9459.0  0.0050
 9464.0  0.0050
 9468.0  0.0040
 9473.0  0.0040
 9477.0  0.0030
 9482.0  0.0030
 9486.0  0.0030
 9491.0  0.0030
 9495.0  0.0030
 9500.0  0.0030
